  profile[m]  topo[m]
        0.00 -2889.00
     4699.30 -2893.40
     9398.60 -2904.40
    14097.90 -2920.18
    18797.20 -2938.92
    23496.50 -2958.81
    28195.80 -2978.04
    32895.10 -2994.79
    37594.40 -3007.24
    42293.70 -3013.58
    46993.00 -3012.00
    51692.30 -3004.71
    56391.60 -2994.82
    61090.90 -2981.86
    65790.20 -2965.37
    70489.50 -2944.88
    75188.80 -2919.91
    79888.10 -2890.01
    84587.40 -2854.70
    89286.70 -2813.52
    93986.00 -2766.00
    98685.30 -2710.44
   103384.60 -2646.38
   108083.90 -2575.21
   112783.20 -2498.33
   117482.50 -2417.12
   122181.80 -2332.99
   126881.10 -2247.32
   131580.40 -2161.50
   136279.70 -2076.93
   140979.01 -1995.00
   145678.31 -1912.49
   150377.61 -1826.17
   155076.91 -1737.41
   159776.21 -1647.58
   164475.51 -1558.06
   169174.81 -1470.22
   173874.11 -1385.42
   178573.41 -1305.03
   183272.71 -1230.44
   187972.01 -1163.00
   192671.31 -1102.84
   197370.61 -1048.62
   202069.91  -999.47
   206769.21  -954.57
   211468.51  -913.06
   216167.81  -874.11
   220867.11  -836.87
   225566.41  -800.50
   230265.71  -764.16
   234965.01  -727.00
   239664.31  -689.10
   244363.61  -651.39
   249062.91  -614.28
   253762.21  -578.18
   258461.51  -543.50
   263160.81  -510.66
   267860.11  -480.08
   272559.41  -452.17
   277258.71  -427.34
   281958.01  -406.00
   286657.31  -389.04
   291356.61  -376.51
   296055.91  -367.60
   300755.21  -361.50
   305454.51  -357.38
   310153.81  -354.42
   314853.11  -351.83
   319552.41  -348.77
   324251.71  -344.43
   328951.01  -338.00
   333650.31  -329.75
   338349.61  -320.66
   343048.91  -311.03
   347748.21  -301.11
   352447.51  -291.19
   357146.81  -281.53
   361846.11  -272.41
   366545.41  -264.10
   371244.71  -256.87
   375944.01  -251.00
   380643.31  -246.58
   385342.61  -243.38
   390041.91  -241.18
   394741.21  -239.77
   399440.51  -238.94
   404139.81  -238.47
   408839.11  -238.16
   413538.42  -237.78
   418237.72  -237.14
   422937.02  -236.00
   427636.32  -235.45
   432335.62  -236.29
   437034.92  -237.93
   441734.22  -239.78
   446433.52  -241.25
   451132.82  -241.74
   455832.12  -240.65
   460531.42  -237.39
   465230.72  -231.37
   469930.02  -222.00
   474629.32  -208.90
   479328.62  -192.47
   484027.92  -173.31
   488727.22  -151.98
   493426.52  -129.06
   498125.82  -105.14
   502825.12   -80.80
   507524.42   -56.61
   512223.72   -33.15
   516923.02   -11.00
   521622.32    10.48
   526321.62    32.24
   531020.92    54.18
   535720.22    76.20
   540419.52    98.19
   545118.82   120.04
   549818.12   141.65
   554517.42   162.92
   559216.72   183.74
   563916.02   204.00
   568615.32   223.25
   573314.62   241.36
   578013.92   258.68
   582713.22   275.56
   587412.52   292.38
   592111.82   309.48
   596811.12   327.24
   601510.42   346.00
   606209.72   366.13
   610909.02   388.00
   615608.32   412.32
   620307.62   439.13
   625006.92   467.74
   629706.22   497.46
   634405.52   527.62
   639104.82   557.54
   643804.12   586.51
   648503.42   613.87
   653202.72   638.93
   657902.02   661.00
   662601.32   681.83
   667300.62   703.11
   671999.92   724.05
   676699.22   743.86
   681398.52   761.75
   686097.82   776.94
   690797.13   788.65
   695496.43   796.09
   700195.73   798.47
   704895.03   795.00
   709594.33   783.82
   714293.63   764.70
   718992.93   739.33
   723692.23   709.39
   728391.53   676.56
   733090.83   642.53
   737790.13   608.97
   742489.43   577.58
   747188.73   550.02
   751888.03   528.00
   756587.33   510.66
   761286.63   495.78
   765985.93   483.01
   770685.23   471.95
   775384.53   462.25
   780083.83   453.53
   784783.13   445.41
   789482.43   437.54
   794181.73   429.52
   798881.03   421.00
   803580.33   412.37
   808279.63   404.24
   812978.93   396.55
   817678.23   389.24
   822377.53   382.25
   827076.83   375.52
   831776.13   368.99
   836475.43   362.60
   841174.73   356.29
   845874.03   350.00
   850573.33   343.90
   855272.63   338.14
   859971.93   332.64
   864671.23   327.33
   869370.53   322.12
   874069.83   316.95
   878769.13   311.73
   883468.43   306.38
   888167.73   300.83
   892867.03   295.00
   897566.33   289.64
   902265.63   285.25
   906964.93   281.37
   911664.23   277.54
   916363.53   273.31
   921062.83   268.22
   925762.13   261.80
   930461.43   253.59
   935160.73   243.15
   939860.03   230.00
   944559.33   213.00
   949258.63   192.00
   953957.93   168.00
   958657.23   142.04
   963356.54   115.12
   968055.84    88.28
   972755.14    62.52
   977454.44    38.88
   982153.74    18.36
   986853.04     2.00
   991552.34   -10.38
   996251.64   -19.93
  1000950.94   -27.10
  1005650.24   -32.34
  1010349.54   -36.12
  1015048.84   -38.90
  1015048.84   -38.90
  1019748.14   -41.11
  1024447.44   -43.23
  1029146.74   -45.71
  1033846.04   -49.00
  1038545.34   -52.91
  1043244.64   -56.87
  1047943.94   -60.75
  1052643.24   -64.42
  1057342.54   -67.75
  1062041.84   -70.62
  1066741.14   -72.91
  1071440.44   -74.49
  1076139.74   -75.23
  1080839.04   -75.00
  1085538.34   -73.54
  1090237.64   -70.82
  1094936.94   -67.09
  1099636.24   -62.61
  1104335.54   -57.62
  1109034.84   -52.39
  1113734.14   -47.16
  1118433.44   -42.18
  1123132.74   -37.71
  1127832.04   -34.00
  1132531.34   -31.17
  1137230.64   -29.02
  1141929.94   -27.35
  1146629.24   -25.91
  1151328.54   -24.50
  1156027.84   -22.89
  1160727.14   -20.85
  1165426.44   -18.18
  1170125.74   -14.63
  1174825.04   -10.00
  1179524.34    -4.17
  1184223.64     2.68
  1188922.94    10.36
  1193622.24    18.68
  1198321.54    27.44
  1203020.84    36.44
  1207720.14    45.49
  1212419.44    54.40
  1217118.74    62.97
  1221818.04    71.00
  1226517.34    78.64
  1231216.64    86.16
  1235915.95    93.58
  1240615.25   100.92
  1245314.55   108.19
  1250013.85   115.40
  1254713.15   122.57
  1259412.45   129.72
  1264111.75   136.86
  1268811.05   144.00
  1273510.35   151.40
  1278209.65   159.17
  1282908.95   167.14
  1287608.25   175.14
  1292307.55   183.00
  1297006.85   190.54
  1301706.15   197.58
  1306405.45   203.95
  1311104.75   209.48
  1315804.05   214.00
  1320503.35   217.60
  1325202.65   220.54
  1329901.95   222.82
  1334601.25   224.49
  1339300.55   225.56
  1343999.85   226.07
  1348699.15   226.04
  1353398.45   225.50
  1358097.75   224.48
  1362797.05   223.00
  1367496.35   220.79
  1372195.65   217.68
  1376894.95   213.83
  1381594.25   209.40
  1386293.55   204.56
  1390992.85   199.48
  1395692.15   194.32
  1400391.45   189.24
  1405090.75   184.41
  1409790.05   180.00
  1414489.35   175.79
  1419188.65   171.49
  1423887.95   167.15
  1428587.25   162.82
  1433286.55   158.56
  1437985.85   154.42
  1442685.15   150.44
  1447384.45   146.67
  1452083.75   143.18
  1456783.05   140.00
  1461482.35   137.19
  1466181.65   134.72
  1470880.95   132.53
  1475580.25   130.56
  1480279.55   128.75
  1484978.85   127.04
  1489678.15   125.37
  1494377.45   123.68
  1499076.75   121.91
  1503776.05   120.00
  1508475.35   118.09
  1513174.66   116.32
  1517873.96   114.63
  1522573.26   112.96
  1527272.56   111.25
  1531971.86   109.44
  1536671.16   107.47
  1541370.46   105.28
  1546069.76   102.81
  1550769.06   100.00
  1555468.36    96.94
  1560167.66    93.73
  1564866.96    90.35
  1569566.26    86.78
  1574265.56    83.00
  1578964.86    78.98
  1583664.16    74.69
  1588363.46    70.11
  1593062.76    65.22
  1597762.06    60.00
  1602461.36    54.04
  1607160.66    47.15
  1611859.96    39.61
  1616559.26    31.70
  1621258.56    23.69
  1625957.86    15.86
  1630657.16     8.50
  1635356.46     1.89
  1640055.76    -3.71
  1644755.06    -8.00
  1649454.36   -11.27
  1654153.66   -13.96
  1658852.96   -16.04
  1663552.26   -17.48
  1668251.56   -18.25
  1672950.86   -18.32
  1677650.16   -17.66
  1682349.46   -16.24
  1687048.76   -14.03
  1691748.06   -11.00
  1696447.36    -6.01
  1701146.66     1.54
  1705845.96    10.88
  1710545.26    21.23
  1715244.56    31.81
  1719943.86    41.85
  1724643.16    50.56
  1729342.46    57.18
  1734041.76    60.91
  1738741.06    61.00
  1743440.36    56.83
  1748139.66    48.87
  1752838.96    37.96
  1757538.26    24.94
  1762237.56    10.62
  1766936.86    -4.14
  1771636.16   -18.51
  1776335.46   -31.67
  1781034.76   -42.78
  1785734.07   -51.00
  1790433.37   -56.98
  1795132.67   -61.96
  1799831.97   -65.95
  1804531.27   -69.00
  1809230.57   -71.12
  1813929.87   -72.36
  1818629.17   -72.73
  1823328.47   -72.28
  1828027.77   -71.03
  1832727.07   -69.00
  1837426.37   -66.07
  1842125.67   -62.12
  1846824.97   -57.23
  1851524.27   -51.48
  1856223.57   -44.94
  1860922.87   -37.68
  1865622.17   -29.78
  1870321.47   -21.32
  1875020.77   -12.37
  1879720.07    -3.00
  1884419.37     7.88
  1889118.67    20.96
  1893817.97    35.55
  1898517.27    50.96
  1903216.57    66.50
  1907915.87    81.48
  1912615.17    95.21
  1917314.47   107.00
  1922013.77   116.16
  1926713.07   122.00
  1931412.37   124.05
  1936111.67   122.77
  1940810.97   118.85
  1945510.27   112.98
  1950209.57   105.88
  1954908.87    98.22
  1959608.17    90.70
  1964307.47    84.03
  1969006.77    78.90
  1973706.07    76.00
  1978405.37    75.23
  1983104.67    75.82
  1987803.97    77.43
  1992503.27    79.77
  1997202.57    82.50
  2001901.87    85.31
  2006601.17    87.89
  2011300.47    89.90
  2015999.77    91.05
  2020699.07    91.00
  2025398.37    89.55
  2030097.67    86.92
  2034796.97    83.42
  2039496.27    79.36
  2044195.57    75.06
  2048894.87    70.84
  2053594.17    67.01
  2058293.48    63.88
  2062992.78    61.77
  2067692.08    61.00
  2072391.38    61.70
  2077090.68    63.64
  2081789.98    66.53
  2086489.28    70.12
  2091188.58    74.12
  2095887.88    78.28
  2100587.18    82.31
  2105286.48    85.96
  2109985.78    88.94
  2114685.08    91.00
  2119384.38    92.22
  2124083.68    92.92
  2128782.98    93.20
  2133482.28    93.16
  2138181.58    92.88
  2142880.88    92.44
  2147580.18    91.94
  2152279.48    91.48
  2156978.78    91.14
  2161678.08    91.00
  2166377.38    90.73
  2171076.68    90.02
  2175775.98    89.08
  2180475.28    88.07
  2185174.58    87.19
  2189873.88    86.61
  2194573.18    86.52
  2199272.48    87.10
  2203971.78    88.53
  2208671.08    91.00
  2213370.38    94.90
  2218069.68   100.27
  2222768.98   106.74
  2227468.28   113.94
  2232167.58   121.50
  2236866.88   129.06
  2241566.18   136.26
  2246265.48   142.73
  2250964.78   148.10
  2255664.08   152.00
  2260363.38   154.12
  2265062.68   154.67
  2269761.98   154.06
  2274461.28   152.70
  2279160.58   151.00
  2283859.88   149.38
  2288559.18   148.26
  2293258.48   148.05
  2297957.78   149.16
  2302657.08   152.00
  2307356.38   157.00
  2312055.68   163.94
  2316754.98   172.34
  2321454.28   181.67
  2326153.58   191.44
  2330852.88   201.13
  2335552.19   210.24
  2340251.49   218.26
  2344950.79   224.68
